year,rainfall_derived_dryness_mm,annual_vpd_kpa,annual_ffdi_index,blue_mountains_lga_population_persons,chara_mean_raw_mm2_cm2_yr,raman_mean_raw_kw_m2,annual_mean_nino34_sst_anomaly_c,annual_mean_southern_oscillation_index,annual_mean_dmi_ipo_index,annual_mean_daily_max_vpd_kpa,annual_mean_vpd_smooth_365d_centered_kpa,annual_mean_vpd_smooth_1825d_centered_kpa
1900,-10.88333333333344,,,,21.92031682885417,47.970321715,0.7416666666666667,-0.6483333333333333,,,,
1901,559.2166666666666,,,,13.971294430666669,,-0.12083333333333335,0.0658333333333333,,,,
1902,657.1166666666666,,,,13.971294430666669,,0.7358333333333333,0.09833333333333331,,,,
1903,135.01666666666665,,,,13.971294430666669,,-0.0008333333333333156,0.47,,,,
1904,110.91666666666652,,,,12.596581370944444,,-0.010833333333333325,0.3925,,,,
1905,439.3166666666666,,,,14.80818063777778,46.12518606,0.89,-1.7858333333333334,,,,
1906,331.21666666666647,,,,22.794871141111116,43.69227927,-0.03333333333333333,0.20583333333333334,,,,
1907,579.1166666666666,,,,29.56209647573016,42.69901286,-0.3758333333333333,-0.205,,,,
1908,235.4166666666665,,,,29.91637850523016,,-0.5108333333333334,0.2841666666666666,,,,
1909,445.51666666666665,,,,29.91637850523016,,-0.8741666666666666,0.2875,,,,
1910,218.21666666666647,,,,37.45595343717461,,-0.9283333333333333,1.2583333333333333,,,,
1911,-175.38333333333344,,,9661.0,37.45595343717461,,-0.2541666666666667,-0.6366666666666667,,,,
1912,98.3166666666666,,,,37.909438712174605,,0.21166666666666667,-0.9758333333333334,,,,
1913,-314.0833333333335,,,,37.909438712174605,43.28864779,0.035,-0.6775000000000001,,,,
1914,-123.28333333333352,,,,21.858606164984128,,0.49750000000000005,-0.9258333333333333,,,,
1915,749.7166666666666,,,,21.858606164984128,,0.355,0.16583333333333333,,,,
1916,99.8166666666666,,,,19.656968795539683,44.40958699,-0.93,0.6375000000000001,,,,
1917,88.41666666666652,,,,18.62359761820635,,-0.42250000000000004,2.138333333333333,,,,
1918,517.5166666666665,,,,18.62359761820635,,0.07833333333333335,0.04666666666666666,,,,
1919,265.11666666666656,,,,18.62359761820635,,0.6075,-1.0941666666666665,,,,
1920,174.01666666666665,,,,18.62359761820635,42.56816635,0.21916666666666665,0.09166666666666667,,,,
1921,-400.0833333333335,,,3712.0,19.438430766569443,40.93685716,-0.45083333333333336,0.6608333333333334,,,,
1922,231.61666666666656,,,,13.721424528982142,,-0.3325,0.33,,,,
1923,546.6166666666666,,,,13.721424528982142,,0.029166666666666674,-0.36166666666666664,,,,
1924,300.3166666666666,,,,15.614160393315478,,-0.40750000000000003,0.33749999999999997,,,,
1925,51.61666666666656,,,,15.614160393315478,50.60296342,0.18916666666666668,-0.24416666666666664,,,,
1926,96.11666666666656,,,,15.614160393315478,,0.5225,-0.4916666666666667,,,,
1927,57.01666666666665,,,,15.614160393315478,39.93199061,-0.07833333333333332,0.2733333333333334,,,,
1928,161.51666666666665,,,,13.336711776315475,43.806275685,-0.06583333333333334,0.4175,,,,
1929,-220.78333333333356,,,,9.596749414361112,38.84805734,0.085,0.4608333333333334,,,,
1930,78.51666666666665,,,,9.442395985361111,43.205460535,0.7174999999999999,0.025833333333333337,,,,
1931,-22.78333333333353,,,,12.34852745036111,25.49720563,0.45249999999999996,0.39333333333333337,,,,
1932,405.01666666666665,,,,12.34852745036111,,-0.005833333333333329,-0.6774999999999999,,,,
1933,-103.48333333333336,,,3394.0,14.974231239527777,,-0.6241666666666666,0.09416666666666666,,,,
1934,-454.78333333333353,,,,14.974231239527777,,-0.49,-0.010833333333333334,,,,
1935,451.21666666666647,,,,16.828922818833334,,-0.17,0.14083333333333334,,,,
1936,440.8166666666666,,,,16.828922818833334,,0.10999999999999999,0.03166666666666668,,,,
1937,235.61666666666656,,,,16.828922818833334,39.7785657175,0.010000000000000002,0.08333333333333333,,,,
1938,397.61666666666656,,,,19.68843425,41.658832175,-0.4575,0.8758333333333334,,,,
1939,450.21666666666647,,,,17.425493218333333,34.41491046,-0.19166666666666665,0.02,,,,
1940,696.2166666666666,1.3943400786666666,,,17.425493218333333,,0.7383333333333333,-1.5241666666666667,,1.3943400786666666,1.297603482155406,1.2178491271284788
1941,780.2166666666666,1.1204057097643836,,,15.257825453055554,43.93676606,1.11,-1.4475,,1.1204057097643836,1.1642318939756504,1.2442042098061568
1942,-23.78333333333353,1.057278258769863,,,15.257825453055554,,-0.45,0.019166666666666648,,1.057278258769863,1.1390081882238845,1.2500665961616677
1943,9.61666666666656,1.3944945106136986,,,20.637886895055555,,-0.5158333333333333,0.355,,1.3944945106136986,1.3249686569031374,1.2654750043385936
1944,892.7166666666666,1.377947576513661,,,20.637886895055555,,-0.10416666666666667,-0.2775,,1.377947576513661,1.333845588203749,1.3126884379852888
1945,317.01666666666665,1.2777189424054796,,,20.637886895055555,47.76339818,-0.6266666666666666,0.4183333333333334,,1.2777189424054796,1.365640671900268,1.3135074932778121
1946,528.3166666666666,1.497354337120548,,,17.87090549088889,,-0.21666666666666667,-0.7916666666666666,,1.497354337120548,1.3996197887366755,1.2858262227297692
1947,-48.083333333333485,1.088375396739726,,4919.0,20.54025397838889,,-0.2658333333333333,0.15916666666666668,,1.088375396739726,1.143179480842568,1.2558624145371995
1948,291.01666666666665,1.2298106801502733,,,20.54025397838889,41.8550558725,0.08083333333333333,-0.2325,,1.2298106801502733,1.1870705364177605,1.1841122939536624
1949,-472.38333333333344,1.1853900707315068,,,22.75375364305556,,-0.49666666666666665,-0.21333333333333335,,1.1853900707315068,1.1835677916900953,1.1562903139364331
1950,-1272.0833333333333,0.9739563322547944,3.44366,,20.89202197290476,,-1.0625,1.5108333333333333,-0.3958333333333333,0.9739563322547945,1.0072424879458466,1.1909065971353596
1951,-265.2833333333336,1.2600247221369862,6.40856,,20.89202197290476,,0.12583333333333335,-0.6941666666666667,-0.4191666666666667,1.2600247221369862,1.2605263326752028,1.2230006185366034
1952,-380.6833333333334,1.326694251636612,5.98823,,12.596280018619046,42.59121022,-0.18583333333333332,-0.22166666666666668,-0.4091666666666667,1.326694251636612,1.315644578023093,1.2595376385602821
1953,610.3166666666666,1.4135399744657533,6.51875,,14.839663217285716,41.52475795,0.31916666666666665,-0.7675000000000001,-0.3983333333333334,1.4135399744657533,1.3484037233591863,1.2932465189591562
1954,180.61666666666656,1.3066769725424658,5.18119,,17.848582427107143,47.06679072,-0.5866666666666667,0.2333333333333333,-0.36000000000000004,1.3066769725424658,1.365443484187182,1.27099980830377
1955,-79.48333333333335,1.2064631658739726,4.45205,,15.439614437678571,43.37999432,-1.1841666666666668,0.9025,-0.3841666666666666,1.2064631658739726,1.1753561202939868,1.3221683955105883
1956,-549.8833333333334,1.1055936271885247,4.95972,,18.391143688821423,39.3997678675,-0.8566666666666666,1.0191666666666668,-0.41083333333333333,1.1055936271885247,1.1511392011201145,1.3128376918957356
1957,731.4166666666665,1.695371366339726,10.0051,,18.391143688821423,,0.47500000000000003,-0.4558333333333333,-0.43249999999999994,1.695371366339726,1.5717163296084558,1.249951858285109
1958,194.71666666666647,1.2124494930246577,5.43524,,18.391143688821423,47.93875118,0.4291666666666667,-0.5016666666666666,-0.4583333333333333,1.2124494930246577,1.300847580027591,1.2391310829289648
1959,-123.38333333333344,0.9967858464219178,4.47743,,17.554156607535713,45.50369311,-0.017500000000000005,-0.10416666666666664,-0.4925,0.9967858464219178,1.0508778821045999,1.223964445550436
1960,310.51666666666665,1.1330079197185794,5.23056,,14.129353171678572,,-0.09000000000000001,0.2916666666666667,-0.5058333333333334,1.1330079197185794,1.1210004513537677,1.1136431317280908
1961,-208.98333333333332,1.0913093947178083,4.74703,,9.907392312821427,45.088367535,-0.18916666666666668,-0.010833333333333361,-0.5625,1.0913093947178083,1.0750812464424817,1.058069858053345
1962,-31.183333333333398,1.0295488249178082,4.9179,,32.92077341601587,,-0.33499999999999996,0.3858333333333333,-0.5216666666666666,1.0295488249178082,1.0208233786814598,1.0865189398232045
1963,-643.6833333333336,0.9611588197232876,4.05378,,32.92077341601587,,0.36083333333333334,-0.31916666666666665,-0.5116666666666667,0.9611588197232876,1.0223435301795185,1.1309601893033052
1964,313.3166666666666,1.1905981921885245,6.98302,,32.92077341601587,44.46461133,-0.5425,0.5391666666666667,-0.48583333333333334,1.1905981921885245,1.1937366771095952,1.14791064211361
1965,305.4166666666665,1.3594348585972604,8.73427,,35.360171037873016,31.57736811,0.6,-0.9525,-0.52,1.3594348585972604,1.3430268858033,1.1656939563045254
1966,515.9166666666665,1.1783570078246577,6.01416,16893.0,35.360171037873016,,0.23416666666666663,-0.5383333333333333,-0.5058333333333334,1.1783570078246575,1.1591660134194968,1.2083473844299313
1967,142.51666666666665,1.1213446363013695,5.92281,,35.360171037873016,,-0.37833333333333335,0.25416666666666665,-0.4991666666666667,1.1213446363013697,1.1096456047024548,1.1909124296268039
1968,685.4166666666665,1.2232570728661205,7.289,,35.360171037873016,,-0.02416666666666666,0.19999999999999998,-0.455,1.2232570728661203,1.2358716335555313,1.1311897980226413
1969,-107.1833333333334,1.1056507158027398,4.40573,,35.360171037873016,47.64713307,0.5575,-0.6658333333333334,-0.45416666666666666,1.1056507158027398,1.1063525126839353,1.1015881947473651
1970,258.8166666666666,1.0643316615452054,5.2002,,34.17075000315873,,-0.355,0.2891666666666667,-0.45083333333333336,1.0643316615452054,1.0446372878096815,1.1006038346358817
1971,93.21666666666648,1.0319822768136986,5.46687,18438.0,17.441548142373016,41.39661914,-0.9308333333333333,1.0725,-0.4383333333333333,1.0319822768136986,1.0109119528504065,1.054732114791663
1972,-285.7833333333336,1.087911313838798,5.41389,,73.28196310894444,,0.775,-0.8291666666666666,-0.4191666666666667,1.087911313838798,1.105335266245523,1.022820826293257
1973,-262.38333333333344,1.0102803800273972,4.08007,,73.28196310894444,,-0.6508333333333333,0.64,-0.3575,1.0102803800273972,1.005752410635808,1.0130249280394281
1974,-539.2833333333335,0.9325060617671233,4.16952,,73.28196310894444,40.45621838,-0.945,0.9591666666666666,-0.385,0.9325060617671233,0.9473630733156343,1.021124325321496
1975,-96.88333333333344,1.0309657944958903,5.38139,,81.26212266023016,,-1.045,1.3283333333333334,-0.37916666666666665,1.0309657944958905,0.9954539761069143,1.0694650726486343
1976,-113.1833333333334,1.0258688044180326,4.67499,,81.26212266023016,,-0.08583333333333336,0.05833333333333334,-0.41250000000000003,1.0258688044180326,1.051987087653476,1.1203148195258306
1977,249.8166666666666,1.406670940060274,7.54096,,81.26212266023016,,0.5016666666666667,-1.135,-0.37083333333333335,1.406670940060274,1.3476939765742613,1.2075274663993731
1978,-578.1833333333336,1.1215860539953424,4.12551,,81.26212266023016,45.72452562,-0.17916666666666667,-0.2875,-0.35833333333333334,1.1215860539953424,1.2589739168812129,1.3212372943517243
1979,761.2166666666666,1.469045949232877,7.89667,,83.24732985665874,,0.18666666666666668,-0.26333333333333336,-0.3725,1.469045949232877,1.3835500777997518,1.3738956087134873
1980,648.4166666666665,1.6079603640191256,9.42264,,87.47030611221429,,0.14083333333333334,-0.43250000000000005,-0.36916666666666664,1.6079603640191256,1.563429570483082,1.3871362485824785
1981,-238.48333333333332,1.2503208179452054,5.3395,,90.98634130221429,43.78085464,-0.18916666666666668,0.07083333333333335,-0.3958333333333333,1.2503208179452054,1.3148440943887643,1.3865930795519537
1982,585.4166666666665,1.4495591763863014,8.064,,90.98634130221429,,0.915,-1.4500000000000002,-0.4008333333333333,1.4495591763863014,1.4146512462412089,1.3383143399234383
1983,161.41666666666652,1.233190211369863,5.85053,,90.98634130221429,43.87620065,0.44583333333333336,-0.9483333333333333,-0.34,1.233190211369863,1.2555919178022181,1.2687153825049882
1984,-277.9833333333333,1.1053171845710383,4.22367,,89.1744174765,,-0.7200000000000001,-0.13749999999999998,-0.3258333333333333,1.1053171845710383,1.1431814533651006,1.248347781017053
1985,-87.38333333333344,1.2044210403123288,5.96906,,89.1744174765,,-0.7116666666666666,-0.017499999999999988,-0.3666666666666667,1.2044210403123288,1.215554182572742,1.19131172772868
1986,-110.98333333333336,1.2279020396849316,6.33161,63866.0,87.93795359607142,47.05472126,0.08416666666666667,-0.3225,-0.4275,1.2279020396849316,1.212827270196261,1.1630849121196083
1987,-167.78333333333353,1.1522274548767124,5.39537,,91.35797234607142,45.290118485,1.2241666666666666,-1.4775,-0.44083333333333335,1.1522274548767124,1.1305119251295137,1.1592721209514647
1988,-371.98333333333335,1.1504819024273223,4.9844,,65.74870384607142,44.73212468,-1.0191666666666668,0.7366666666666667,-0.45416666666666666,1.1504819024273225,1.1130450505888605,1.1689488315125307
1989,-252.1833333333334,1.127702634339726,4.63526,,64.96517175107142,,-0.7883333333333334,0.6166666666666667,-0.4791666666666667,1.127702634339726,1.124629932809684,1.1999690554249234
1990,-347.38333333333344,1.210245404380822,5.13036,,60.312572742976194,27.99485721,0.1775,-0.32583333333333336,-0.535,1.210245404380822,1.2643286469304922,1.196329980990686
1991,331.51666666666665,1.407726911279452,7.99383,69420.0,59.97849546140476,,0.5975,-1.0133333333333334,-0.5866666666666666,1.407726911279452,1.3674251795637438,1.2114611490186507
1992,,1.043139366909836,4.24269,,59.97849546140476,,0.6224999999999999,-1.2275,-0.5425,1.043139366909836,1.1122407037486903,1.2577462541688098
1993,746.2166666666666,1.1981252747337534,5.43028,,59.97849546140476,45.23229603,0.4366666666666667,-1.1066666666666667,-0.5966666666666667,1.1981252747337534,1.189055933737077,1.2493134087332933
1994,709.0166666666665,1.460847309728767,8.87256,,60.47108944783333,,0.3825,-1.3533333333333333,-0.5808333333333333,1.460847309728767,1.3561367587485034,1.2166056883328862
1995,-32.88333333333344,1.1602000645049315,4.99909,,59.97239224247619,,-0.024999999999999984,-0.3358333333333334,-0.5366666666666666,1.1602000645049315,1.2226640142288603,1.2725474887849657
1996,223.61666666666656,1.1884861166557377,5.49447,72506.0,59.414148069333336,53.28241169,-0.37000000000000005,0.5625,-0.5633333333333334,1.1884861166557377,1.2032407857927188,1.292574142043221
1997,539.4166666666665,1.4087189381884933,7.55265,,58.98101316347619,,1.19,-1.2883333333333333,-0.6150000000000001,1.4087189381884933,1.3923940087232978,1.2413292526571809
1998,-96.38333333333344,1.2685095353178082,5.85502,,58.98101316347619,40.6729695025,0.07250000000000002,-0.22416666666666663,-0.5158333333333334,1.2685095353178082,1.2883930404748238,1.2203965531772976
1999,-102.28333333333352,1.092613626589041,4.53269,,56.59102154371429,,-1.0941666666666665,0.7866666666666666,-0.5308333333333334,1.092613626589041,1.1003174994505895,1.2272462226254355
2000,230.9166666666665,1.117916472749989,5.42535,,86.42774158085714,42.35380185,-0.8725,0.7225,-0.5516666666666666,1.117916472749989,1.1178429296952532,1.2276597076546432
2001,270.61666666666656,1.2700382859369863,6.58699,73675.0,86.56307311814285,,-0.33666666666666667,-0.07833333333333334,-0.5275,1.2700382859369863,1.2376205248504402,1.2334650030858614
2002,491.8166666666666,1.440897732760274,9.30792,,86.56307311814285,43.82800153,0.5891666666666667,-0.7233333333333333,-0.5308333333333334,1.4408977327602739,1.3952197273525286,1.287357118778039
2003,301.51666666666665,1.2038990287041096,6.69339,,108.09205618957142,38.1474026075,0.23916666666666667,-0.4266666666666667,-0.51,1.2038990287041096,1.3163217782629748,1.3266705627334499
2004,529.8166666666666,1.407591302204918,8.27352,,108.22356752957144,41.13579847,0.36916666666666664,-0.6333333333333333,-0.4991666666666667,1.407591302204918,1.3694174257817404,1.3612446759509451
2005,192.21666666666647,1.3455200971780823,6.48114,,101.00053328671429,,0.03583333333333335,-0.4566666666666666,-0.5108333333333334,1.3455200971780823,1.3147004782086769,1.3264806320524798
2006,529.5166666666665,1.4222589253479452,9.6475,74067.0,101.00053328671429,45.011736005,0.09333333333333334,-0.2825,-0.5750000000000001,1.4222589253479452,1.4105057678685544,1.2859730375750995
2007,-451.78333333333353,1.2059178317123287,5.59992,,75.034341935,31.523659345,-0.5608333333333334,0.034999999999999996,-0.5299999999999999,1.2059178317123287,1.221641335452259,1.2625824442543585
2008,170.01666666666665,1.0692207450737703,4.8375,,44.90217986928571,45.53925209,-0.7133333333333334,0.9974999999999999,-0.48500000000000004,1.0692207450737705,1.1138183734955205,1.2218489484437083
2009,69.41666666666652,1.3223382079890411,7.90129,,57.92666943285714,,0.35250000000000004,-0.13166666666666663,-0.48,1.3223382079890411,1.2527089892125758,1.1435325985779556
2010,-207.58333333333348,1.0410628967726028,4.37616,,57.92666943285714,42.978556965,-0.43,0.9441666666666667,-0.46416666666666667,1.0410628967726028,1.1107217740770068,1.1308979621372262
2011,,1.0535181427863014,4.71907,75942.0,54.90184554571429,46.66089104,-0.8483333333333333,1.3958333333333333,-0.5,1.0535181427863014,1.0195377671479449,1.1807391757794783
2012,72.8166666666666,1.178221314751366,5.73085,,147.9183249767143,39.7853322,-0.03166666666666667,-0.18000000000000002,-0.48500000000000004,1.178221314751366,1.157961239845465,1.1949569334502832
2013,-62.083333333333485,1.380688764767123,8.24566,,148.80184778814285,43.47511617,-0.22166666666666668,0.3458333333333334,-0.42083333333333334,1.3806887647671233,1.3634644132362372,1.2180494816980934
2014,,1.3409985883726028,7.17167,,147.0699035717143,,0.25416666666666665,-0.38166666666666665,-0.4366666666666667,1.3409985883726028,1.3234229813256089,1.2661537714475173
2015,11.416666666666517,1.168049059980822,5.44284,,147.0699035717143,46.99953512,1.47,-1.1741666666666666,-0.3358333333333334,1.168049059980822,1.2254381348406036,1.3005629013015274
2016,328.21666666666647,1.2523914546709565,6.83722,,127.97515805314283,28.84409583,0.3958333333333333,-0.4566666666666666,-0.285,1.2523914546709563,1.2599547219080003,1.3028306138308616
2017,244.61666666666656,1.2962261423780823,8.34229,,123.7514288502857,50.71608324,-0.2025,0.10916666666666668,-0.3466666666666667,1.2962261423780823,1.3310138019990978,1.3226974356627035
2018,411.01666666666665,1.3968531659232877,10.1948,,137.62615623242857,40.97653855,0.0625,0.08750000000000002,-0.29083333333333333,1.3968531659232877,1.374476386383106,1.3245102258683954
2019,,1.5345014110246575,10.9557,78894.0,124.3375789152857,42.83224925333334,0.5325000000000001,-0.7908333333333334,-0.245,1.5345014110246575,1.4225946760421166,1.2844664935830432
2020,-505.0833333333335,1.153088904465574,5.67468,78855.0,91.58885298714286,37.32859451,-0.22166666666666668,0.30083333333333334,-0.1558333333333333,1.1530889044655739,1.2342804572494448,1.2022577684504647
2021,-328.1833333333334,1.0849049944951508,4.71849,78199.0,98.85323485714284,39.752274588,-0.6275000000000001,0.7725,-0.18666666666666668,1.0849049944951508,1.059166526523338,1.1581427909336592
2022,-1099.1833333333336,0.8947972768712329,3.53817,,,,-0.8475,1.4241666666666666,-0.2191666666666667,0.8947972768712329,0.8849394541530564,1.0666513335870318
